#     wavelength(A)    kappa_tot (cm2/g)     kappa_es (cm2/g)   kappa_bf+ff (cm2/g)      dummy          kappa_bb (cm2/g)        dummy               rho                 v/c              
# t = 5.5 days
    5.1225000000E+02    2.5821400391E+04    9.0605300905E-04    2.5567779297E+04    7.1173141479E+01    2.5362139893E+02    0.0000000000E+00    2.8011914255E-16    1.5385769612E-01
    5.2450000000E+02    2.4614626953E+04    9.0605300905E-04    2.4600460938E+04    2.3051819801E+00    1.4165163994E+01    0.0000000000E+00    2.8011914255E-16    1.5385769612E-01
    5.3675000000E+02    2.3827365234E+04    9.0605300905E-04    2.3676761719E+04    3.2163854980E+02    1.5060276794E+02    0.0000000000E+00    2.8011914255E-16    1.5385769612E-01
    5.4900000000E+02    2.2979656250E+04    9.0605300905E-04    2.2799621094E+04    2.0965347290E+02    1.8003392029E+02    0.0000000000E+00    2.8011914255E-16    1.5385769612E-01
    5.6125000000E+02    2.1971037109E+04    9.0605300905E-04    2.1971035156E+04    3.8278180000E-05    3.8277564454E-04    0.0000000000E+00    2.8011914255E-16    1.5385769612E-01
    5.7350000000E+02    2.1192134766E+04    9.0605300905E-04    2.1192130859E+04    2.4276727345E-04    2.4275563192E-03    0.0000000000E+00    2.8011914255E-16    1.5385769612E-01
    5.8575000000E+02    2.0463289062E+04    9.0605300905E-04    2.0463283203E+04    5.3235091036E-04    5.3231320344E-03    5.7945434715E-38    2.8011914255E-16    1.5385769612E-01
    5.9800000000E+02    1.9784921875E+04    9.0605300905E-04    1.9784212891E+04    7.1064382792E-02    7.0836359262E-01    4.7974172633E-37    2.8011914255E-16    1.5385769612E-01
    6.1025000000E+02    1.9155435547E+04    9.0605300905E-04    1.9154091797E+04    1.3458159566E-01    1.3425455093E+00    3.6379842592E-36    2.8011914255E-16    1.5385769612E-01
    6.2250000000E+02    1.8572720703E+04    9.0605300905E-04    1.8571646484E+04    1.0767860711E-01    1.0734604597E+00    2.5405853794E-35    2.8011914255E-16    1.5385769612E-01
    6.3475000000E+02    1.8117341797E+04    9.0605300905E-04    1.8035246094E+04    1.3606134033E+02    8.2095611572E+01    1.6496103674E-34    2.8011914255E-16    1.5385769612E-01
    6.4700000000E+02    1.7640683594E+04    9.0605300905E-04    1.7542984375E+04    5.1453334808E+01    9.7698120117E+01    9.9254665487E-34    2.8011914255E-16    1.5385769612E-01
    6.5925000000E+02    1.7145996094E+04    9.0605300905E-04    1.7092767578E+04    2.9673221588E+01    5.3226943970E+01    5.5577402294E-33    2.8011914255E-16    1.5385769612E-01
    6.7150000000E+02    1.6694083984E+04    9.0605300905E-04    1.6682357422E+04    1.3860651255E+00    1.1726325989E+01    2.9177333195E-32    2.8011914255E-16    1.5385769612E-01
    6.8375000000E+02    1.6423306641E+04    9.0605300905E-04    1.6309440430E+04    4.0297050476E+01    1.1386465454E+02    1.4538228486E-31    2.8011914255E-16    1.5385769612E-01
    6.9600000000E+02    1.6310982422E+04    9.0605300905E-04    1.5971670898E+04    2.7641592407E+02    3.3930996704E+02    6.8925515631E-31    2.8011914255E-16    1.5385769612E-01
    7.0825000000E+02    1.5952717773E+04    9.0605300905E-04    1.5666711914E+04    9.6458473206E+01    2.8600512695E+02    3.0424472046E-30    2.8011914255E-16    1.5385769612E-01
    7.2050000000E+02    1.5484380859E+04    9.0605300905E-04    1.5392262695E+04    2.0062286377E+01    9.2116722107E+01    1.2637896624E-29    2.8011914255E-16    1.5385769612E-01
    7.3275000000E+02    1.5208198242E+04    9.0605300905E-04    1.5146080078E+04    1.0770374298E+01    6.2117538452E+01    5.0505015101E-29    2.8011914255E-16    1.5385769612E-01
    7.4500000000E+02    1.5171962891E+04    9.0605300905E-04    1.4926002930E+04    1.9305002441E+03    2.4595933533E+02    1.9541508366E-28    2.8011914255E-16    1.5385769612E-01
    7.5725000000E+02    1.4924653320E+04    9.0605300905E-04    1.4729964844E+04    3.5141229248E+02    1.9468701172E+02    7.1234789743E-28    2.8011914255E-16    1.5385769612E-01
    7.6950000000E+02    1.4824407227E+04    9.0605300905E-04    1.4555998047E+04    9.9336456299E+02    2.6840802002E+02    2.5107936536E-27    2.8011914255E-16    1.5385769612E-01
    7.8175000000E+02    1.4213576172E+04    9.0605300905E-04    1.3841176758E+04    3.7876763916E+02    3.7239810181E+02    8.1970552069E-27    2.8011914255E-16    1.5385769612E-01
    7.9400000000E+02    1.3925127930E+04    9.0605300905E-04    1.3665172852E+04    1.4632347412E+03    2.5995443726E+02    2.6290222558E-26    2.8011914255E-16    1.5385769612E-01
    8.0625000000E+02    1.3798880859E+04    9.0605300905E-04    1.3492311523E+04    1.9036408691E+03    3.0656961060E+02    8.2147062778E-26    2.8011914255E-16    1.5385769612E-01
    8.1850000000E+02    1.3965760742E+04    9.0605300905E-04    1.3322500000E+04    3.5742441406E+03    6.4326000977E+02    2.5294307236E-25    2.8011914255E-16    1.5385769612E-01
    8.3075000000E+02    1.3769242188E+04    9.0605300905E-04    1.3155656250E+04    1.2241507568E+03    6.1358502197E+02    7.3322185532E-25    2.8011914255E-16    1.5385769612E-01
    8.4300000000E+02    1.4096142578E+04    9.0605300905E-04    1.2991702148E+04    2.0620017090E+03    1.1044399414E+03    2.1360379189E-24    2.8011914255E-16    1.5385769612E-01
    8.5525000000E+02    1.3352205078E+04    9.0605300905E-04    1.2830566406E+04    3.3237088013E+02    5.2163830566E+02    5.5806106972E-24    2.8011914255E-16    1.5385769612E-01
    8.6750000000E+02    1.3024129883E+04    9.0605300905E-04    1.2672187500E+04    1.1515627441E+03    3.5194116211E+02    1.4572009035E-23    2.8011914255E-16    1.5385769612E-01
    8.7975000000E+02    1.2619634766E+04    9.0605300905E-04    1.2516507812E+04    6.7015093994E+02    1.0312606049E+02    3.6731077153E-23    2.8011914255E-16    1.5385769612E-01
    8.9200000000E+02    1.2437162109E+04    9.0605300905E-04    1.2363474609E+04    2.3478239059E+01    7.3686630249E+01    9.1626257250E-23    2.8011914255E-16    1.5385769612E-01
    9.0425000000E+02    1.2302367188E+04    9.0605300905E-04    1.2213046875E+04    5.1520031738E+02    8.9319206238E+01    2.2345369927E-22    2.8011914255E-16    1.5385769612E-01
    9.1650000000E+02    1.2182223633E+04    9.0605300905E-04    1.2065185547E+04    1.1077647461E+04    1.1703697968E+02    5.3196164927E-22    2.8011914255E-16    1.5385769612E-01
    9.2875000000E+02    1.2075604492E+04    9.0605300905E-04    1.1919861328E+04    4.5675503906E+04    1.5574211121E+02    1.2374093869E-21    2.8011914255E-16    1.5385769612E-01
    9.4100000000E+02    1.1985292969E+04    9.0605300905E-04    1.1777049805E+04    4.4277866211E+03    2.0824137878E+02    2.8159039528E-21    2.8011914255E-16    1.5385769612E-01
    9.5325000000E+02    1.2676551758E+04    9.0605300905E-04    1.1636735352E+04    1.2687002930E+04    1.0398157959E+03    6.6779809503E-21    2.8011914255E-16    1.5385769612E-01
    9.6550000000E+02    1.1980957031E+04    9.0605300905E-04    1.1498907227E+04    4.9765898438E+03    4.8204882812E+02    1.3851486708E-20    2.8011914255E-16    1.5385769612E-01
    9.7775000000E+02    1.1713748047E+04    9.0605300905E-04    1.1363567383E+04    1.0604384766E+04    3.5018020630E+02    2.9114172622E-20    2.8011914255E-16    1.5385769612E-01
    9.9000000000E+02    1.1462228516E+04    9.0605300905E-04    1.1230719727E+04    2.3907121277E+02    2.3150784302E+02    6.0043095498E-20    2.8011914255E-16    1.5385769612E-01
    1.0022500000E+03    1.1344786133E+04    9.0605300905E-04    1.1100383789E+04    1.4618478394E+02    2.4440141296E+02    1.2287956700E-19    2.8011914255E-16    1.5385769612E-01
    1.0145000000E+03    1.1426077148E+04    9.0605300905E-04    1.0972583008E+04    2.0954509277E+03    4.5349298096E+02    2.5123499211E-19    2.8011914255E-16    1.5385769612E-01
    1.0267500000E+03    1.1509219727E+04    9.0605300905E-04    1.0847352539E+04    1.7977683594E+04    6.6186602783E+02    5.0469659933E-19    2.8011914255E-16    1.5385769612E-01
    1.0390000000E+03    1.1496271484E+04    9.0605300905E-04    1.0724740234E+04    5.9790332031E+03    7.7153027344E+02    9.8837681404E-19    2.8011914255E-16    1.5385769612E-01
    1.0512500000E+03    1.1286911133E+04    9.0605300905E-04    1.0601262695E+04    8.8652021484E+03    6.8564776611E+02    1.8713964606E-18    2.8011914255E-16    1.5385769612E-01
    1.0635000000E+03    1.1329169922E+04    9.0605300905E-04    1.0484036133E+04    1.1968209961E+04    8.4513262939E+02    3.5654156194E-18    2.8011914255E-16    1.5385769612E-01
    1.0757500000E+03    1.1283202148E+04    9.0605300905E-04    1.0369644531E+04    6.6704093750E+04    9.1355737305E+02    6.6374730110E-18    2.8011914255E-16    1.5385769612E-01
    1.0880000000E+03    1.1305682617E+04    9.0605300905E-04    1.0258188477E+04    6.3366933594E+03    1.0474931641E+03    1.2248754026E-17    2.8011914255E-16    1.5385769612E-01
    1.1002500000E+03    1.0895761719E+04    9.0605300905E-04    1.0149790039E+04    2.2401479492E+03    7.4597076416E+02    2.1432023024E-17    2.8011914255E-16    1.5385769612E-01
    1.1125000000E+03    1.1166688477E+04    9.0605300905E-04    1.0044587891E+04    1.2258589844E+04    1.1221002197E+03    3.9331058390E-17    2.8011914255E-16    1.5385769612E-01
    1.1247500000E+03    1.0660611328E+04    9.0605300905E-04    9.9427451172E+03    1.6312722168E+03    7.1786517334E+02    6.6342889447E-17    2.8011914255E-16    1.5385769612E-01
    1.1370000000E+03    1.0764682617E+04    9.0605300905E-04    9.8444492188E+03    1.6719562500E+04    9.2023278809E+02    1.1684266289E-16    2.8011914255E-16    1.5385769612E-01
    1.1492500000E+03    1.0982360352E+04    9.0605300905E-04    9.7499160156E+03    1.6997509766E+04    1.2324422607E+03    2.0533068611E-16    2.8011914255E-16    1.5385769612E-01
    1.1615000000E+03    1.1337723633E+04    9.0605300905E-04    9.6593964844E+03    1.9190197266E+04    1.6783250732E+03    3.6073441805E-16    2.8011914255E-16    1.5385769612E-01
    1.1737500000E+03    1.0855801758E+04    9.0605300905E-04    9.5731757812E+03    7.6196738281E+03    1.2826247559E+03    5.8095242289E-16    2.8011914255E-16    1.5385769612E-01
    1.1860000000E+03    1.0912664062E+04    9.0605300905E-04    9.4915839844E+03    1.1555110352E+04    1.4210798340E+03    9.7118246045E-16    2.8011914255E-16    1.5385769612E-01
    1.1982500000E+03    1.0825664062E+04    9.0605300905E-04    9.4149980469E+03    6.6786059570E+03    1.4106649170E+03    1.5846909652E-15    2.8011914255E-16    1.5385769612E-01
    1.2105000000E+03    1.0890079102E+04    9.0605300905E-04    9.3438544922E+03    2.0212998047E+04    1.5462243652E+03    2.5942855228E-15    2.8011914255E-16    1.5385769612E-01
    1.2227500000E+03    1.0880110352E+04    9.0605300905E-04    9.2786542969E+03    1.7725419922E+04    1.6014548340E+03    4.1747958511E-15    2.8011914255E-16    1.5385769612E-01
    1.2350000000E+03    1.0324721680E+04    9.0605300905E-04    9.2199794922E+03    5.4972998047E+03    1.1047414551E+03    6.3175732142E-15    2.8011914255E-16    1.5385769612E-01
    1.2472500000E+03    1.0712139648E+04    9.0605300905E-04    9.1684990234E+03    1.8346109375E+04    1.5436403809E+03    1.0351511721E-14    2.8011914255E-16    1.5385769612E-01
    1.2595000000E+03    1.0526072266E+04    9.0605300905E-04    9.1249902344E+03    9.9317490234E+03    1.4010809326E+03    1.5913318094E-14    2.8011914255E-16    1.5385769612E-01
    1.2717500000E+03    1.0275788086E+04    9.0605300905E-04    9.0903593750E+03    1.2448716797E+04    1.1854273682E+03    2.4082879720E-14    2.8011914255E-16    1.5385769612E-01
    1.2840000000E+03    1.0291223633E+04    9.0605300905E-04    9.0656621094E+03    5.5660751953E+03    1.2255603027E+03    3.7060161390E-14    2.8011914255E-16    1.5385769612E-01
    1.2962500000E+03    1.0907041016E+04    9.0605300905E-04    9.0521367188E+03    1.8266435547E+04    1.8549033203E+03    5.9834813970E-14    2.8011914255E-16    1.5385769612E-01
    1.3085000000E+03    1.0688748047E+04    9.0605300905E-04    9.0512392578E+03    2.5421175781E+04    1.6375075684E+03    8.8582461678E-14    2.8011914255E-16    1.5385769612E-01
    1.3207500000E+03    1.0967662109E+04    9.0605300905E-04    9.0646933594E+03    3.1168816406E+04    1.9029675293E+03    1.3620068886E-13    2.8011914255E-16    1.5385769612E-01
    1.3330000000E+03    1.0805156250E+04    9.0605300905E-04    9.0945429688E+03    1.7615894531E+04    1.7106126709E+03    1.9948523085E-13    2.8011914255E-16    1.5385769612E-01
    1.3452500000E+03    1.0915616211E+04    9.0605300905E-04    9.1432343750E+03    4.7831391602E+03    1.7723808594E+03    2.9730907948E-13    2.8011914255E-16    1.5385769612E-01
    1.3575000000E+03    1.1193755859E+04    9.0605300905E-04    9.2137060547E+03    1.3180766602E+04    1.9800490723E+03    4.4645141533E-13    2.8011914255E-16    1.5385769612E-01
    1.3697500000E+03    1.1433051758E+04    9.0605300905E-04    9.3095146484E+03    9.5276191406E+03    2.1235368652E+03    6.6289714603E-13    2.8011914255E-16    1.5385769612E-01
    1.3820000000E+03    1.1385959961E+04    9.0605300905E-04    9.4349951172E+03    5.7270332031E+04    1.9509639893E+03    9.5295451218E-13    2.8011914255E-16    1.5385769612E-01
    1.3942500000E+03    1.1266929688E+04    9.0605300905E-04    9.5954775391E+03    3.0043435059E+03    1.6714523926E+03    1.3518932068E-12    2.8011914255E-16    1.5385769612E-01
    1.4065000000E+03    1.1477284180E+04    9.0605300905E-04    9.7975644531E+03    1.4547020508E+04    1.6797191162E+03    1.9611267905E-12    2.8011914255E-16    1.5385769612E-01
    1.4187500000E+03    1.1066200195E+04    9.0605300905E-04    1.0049529297E+04    1.7798499756E+03    1.0166704102E+03    2.6752684269E-12    2.8011914255E-16    1.5385769612E-01
    1.4310000000E+03    1.2190534180E+04    9.0605300905E-04    1.0361837891E+04    9.5684560547E+03    1.8286960449E+03    4.1432460761E-12    2.8011914255E-16    1.5385769612E-01
    1.4432500000E+03    1.2075264648E+04    9.0605300905E-04    1.0747897461E+04    1.2947512695E+04    1.3273660889E+03    5.7343262083E-12    2.8011914255E-16    1.5385769612E-01
    1.4555000000E+03    1.2333339844E+04    9.0605300905E-04    1.1225115234E+04    1.6343239258E+04    1.1082231445E+03    8.1343369540E-12    2.8011914255E-16    1.5385769612E-01
    1.4677500000E+03    1.3392266602E+04    9.0605300905E-04    1.1816430664E+04    1.3820131836E+04    1.5758352051E+03    1.2195686301E-11    2.8011914255E-16    1.5385769612E-01
    1.4800000000E+03    1.3757556641E+04    9.0605300905E-04    1.2552597656E+04    7.2736533203E+03    1.2049576416E+03    1.7199819694E-11    2.8011914255E-16    1.5385769612E-01
    1.4922500000E+03    1.4264154297E+04    9.0605300905E-04    1.3475658203E+04    9.9800708008E+02    7.8849468994E+02    2.4346767658E-11    2.8011914255E-16    1.5385769612E-01
    1.5045000000E+03    1.5794358398E+04    9.0605300905E-04    1.4644383789E+04    1.2963280029E+03    1.1499731445E+03    3.6606037646E-11    2.8011914255E-16    1.5385769612E-01
    1.5167500000E+03    1.7042294922E+04    9.0605300905E-04    1.6143083984E+04    2.4673041992E+03    8.9920947266E+02    5.3350147217E-11    2.8011914255E-16    1.5385769612E-01
    1.5290000000E+03    1.8984595703E+04    9.0605300905E-04    1.8096464844E+04    1.0082364258E+04    8.8812994385E+02    7.9858973601E-11    2.8011914255E-16    1.5385769612E-01
    1.5412500000E+03    2.1383132812E+04    9.0605300905E-04    2.0695796875E+04    4.5004910278E+02    6.8733538818E+02    1.2025999641E-10    2.8011914255E-16    1.5385769612E-01
    1.5535000000E+03    2.5092498047E+04    9.0605300905E-04    2.4247664062E+04    9.3479023438E+03    8.4483477783E+02    1.8775309085E-10    2.8011914255E-16    1.5385769612E-01
    1.5657500000E+03    3.0154755859E+04    9.0605300905E-04    2.9271037109E+04    4.2403945312E+04    8.8371850586E+02    2.9875110719E-10    2.8011914255E-16    1.5385769612E-01
    1.5780000000E+03    9.3103204346E+02    9.0605300905E-04    1.9448736310E-01    1.9837482422E+04    9.3083666992E+02    1.2156130269E-11    2.8011914255E-16    1.5385769612E-01
    1.5902500000E+03    9.0062268066E+02    9.0605300905E-04    2.0103722811E-01    8.5867421875E+03    9.0042071533E+02    1.5426453517E-11    2.8011914255E-16    1.5385769612E-01
    1.6025000000E+03    1.7441695557E+03    9.0605300905E-04    2.0773227513E-01    6.8442416992E+03    1.7439609375E+03    3.9018132475E-11    2.8011914255E-16    1.5385769612E-01
    1.6147500000E+03    1.3292943115E+03    9.0605300905E-04    2.1457342803E-01    2.1595421875E+04    1.3290788574E+03    3.8668766106E-11    2.8011914255E-16    1.5385769612E-01
    1.6270000000E+03    1.5646060791E+03    9.0605300905E-04    2.2156165540E-01    1.5440625000E+04    1.5643836670E+03    5.8932733693E-11    2.8011914255E-16    1.5385769612E-01
    1.6392500000E+03    1.2868482666E+03    9.0605300905E-04    2.2869783640E-01    2.7952654297E+04    1.2866186523E+03    6.2500678244E-11    2.8011914255E-16    1.5385769612E-01
    1.6515000000E+03    1.2334376221E+03    9.0605300905E-04    2.3598286510E-01    1.2488431641E+04    1.2332006836E+03    7.6933452664E-11    2.8011914255E-16    1.5385769612E-01
    1.6637500000E+03    7.1260870361E+02    9.0605300905E-04    2.4341763556E-01    5.2476648438E+04    7.1236437988E+02    5.6854434355E-11    2.8011914255E-16    1.5385769612E-01
    1.6760000000E+03    6.5246746826E+02    9.0605300905E-04    2.5100296736E-01    1.2524334717E+03    6.5221551514E+02    6.6328643966E-11    2.8011914255E-16    1.5385769612E-01
    1.6882500000E+03    8.7900476074E+02    9.0605300905E-04    2.5873968005E-01    5.5075605469E+03    8.7874511719E+02    1.1342638634E-10    2.8011914255E-16    1.5385769612E-01
    1.7005000000E+03    6.7035162354E+02    9.0605300905E-04    2.6662862301E-01    1.0739175781E+04    6.7008404541E+02    1.0939404937E-10    2.8011914255E-16    1.5385769612E-01
    1.7127500000E+03    5.5288623047E+02    9.0605300905E-04    2.7467057109E-01    1.6777859375E+04    5.5261065674E+02    1.1368902347E-10    2.8011914255E-16    1.5385769612E-01
    1.7250000000E+03    5.5509655762E+02    9.0605300905E-04    2.8286626935E-01    1.1109672546E+02    5.5481280518E+02    1.4331813514E-10    2.8011914255E-16    1.5385769612E-01
    1.7372500000E+03    7.7507971191E+02    9.0605300905E-04    2.9121652246E-01    2.9545892334E+02    7.7478753662E+02    2.5039201268E-10    2.8011914255E-16    1.5385769612E-01
    1.7495000000E+03    8.7487927246E+02    9.0605300905E-04    2.9972201586E-01    1.4950645752E+03    8.7457861328E+02    3.5244199226E-10    2.8011914255E-16    1.5385769612E-01
    1.7617500000E+03    7.2694268799E+02    9.0605300905E-04    3.0838349462E-01    4.7737045898E+03    7.2663342285E+02    3.6396594072E-10    2.8011914255E-16    1.5385769612E-01
    1.7740000000E+03    1.1111325684E+03    9.0605300905E-04    3.1720164418E-01    4.9266015625E+02    1.1108144531E+03    6.8918243334E-10    2.8011914255E-16    1.5385769612E-01
    1.7862500000E+03    8.0559075928E+02    9.0605300905E-04    3.2617712021E-01    7.5636657715E+02    8.0526367188E+02    6.1703053778E-10    2.8011914255E-16    1.5385769612E-01
    1.7985000000E+03    5.4108477783E+02    9.0605300905E-04    3.3531063795E-01    1.8256024170E+02    5.4074853516E+02    5.1018383962E-10    2.8011914255E-16    1.5385769612E-01
    1.8107500000E+03    7.4469445801E+02    9.0605300905E-04    3.4460282326E-01    4.0174340820E+03    7.4434899902E+02    8.6175316882E-10    2.8011914255E-16    1.5385769612E-01
    1.8230000000E+03    4.6792568970E+02    9.0605300905E-04    3.5405427217E-01    3.3442805176E+03    4.6757073975E+02    6.6256078401E-10    2.8011914255E-16    1.5385769612E-01
    1.8352500000E+03    4.9035256958E+02    9.0605300905E-04    3.6366561055E-01    5.6449462891E+02    4.8998800659E+02    8.4709039783E-10    2.8011914255E-16    1.5385769612E-01
